         Index            Ts             t            HF        Weight            Tr
           [#]          [°C]           [s]          [mW]          [mg]          [°C]
             0   2.79173e+01   0.00000e+00   2.73044e+01   1.31484e+01   3.00000e+01
             1   2.49534e+01   1.00000e+00   2.15481e+01   1.31480e+01   3.10000e+01
             2   2.48900e+01   2.00000e+00   1.50079e+01   1.31478e+01   3.20000e+01
             3   2.55982e+01   3.00000e+00   1.26908e+01   1.31476e+01   3.30000e+01
             4   2.63843e+01   4.00000e+00   1.29588e+01   1.31474e+01   3.40000e+01
             5   2.71901e+01   5.00000e+00   1.33029e+01   1.31470e+01   3.50000e+01
             6   2.80243e+01   6.00000e+00   1.37363e+01   1.31464e+01   3.60000e+01
             7   2.89259e+01   7.00000e+00   1.43418e+01   1.31457e+01   3.70000e+01
             8   2.99155e+01   8.00000e+00   1.47111e+01   1.31448e+01   3.80000e+01
             9   3.09809e+01   9.00000e+00   1.50259e+01   1.31441e+01   3.90000e+01
            10   3.20537e+01   1.00000e+01   1.53010e+01   1.31434e+01   4.00000e+01
            11   3.31526e+01   1.10000e+01   1.55543e+01   1.31428e+01   4.10000e+01
            12   3.42640e+01   1.20000e+01   1.57404e+01   1.31421e+01   4.20000e+01
            13   3.54129e+01   1.30000e+01   1.59851e+01   1.31416e+01   4.30000e+01
            14   3.65581e+01   1.40000e+01   1.62354e+01   1.31411e+01   4.40000e+01
            15   3.77195e+01   1.50000e+01   1.64771e+01   1.31406e+01   4.50000e+01
            16   3.88919e+01   1.60000e+01   1.66122e+01   1.31402e+01   4.60000e+01
            17   4.00614e+01   1.70000e+01   1.67804e+01   1.31396e+01   4.70000e+01
            18   4.12289e+01   1.80000e+01   1.69417e+01   1.31389e+01   4.80000e+01
            19   4.24067e+01   1.90000e+01   1.70898e+01   1.31382e+01   4.90000e+01
            20   4.35941e+01   2.00000e+01   1.71302e+01   1.31371e+01   5.00000e+01
            21   4.47640e+01   2.10000e+01   1.72144e+01   1.31360e+01   5.10000e+01
            22   4.59407e+01   2.20000e+01   1.72967e+01   1.31348e+01   5.20000e+01
            23   4.71133e+01   2.30000e+01   1.73693e+01   1.31336e+01   5.30000e+01
            24   4.82852e+01   2.40000e+01   1.73367e+01   1.31319e+01   5.40000e+01
            25   4.94502e+01   2.50000e+01   1.73426e+01   1.31303e+01   5.50000e+01
            26   5.06126e+01   2.60000e+01   1.73424e+01   1.31285e+01   5.60000e+01
            27   5.17734e+01   2.70000e+01   1.73315e+01   1.31267e+01   5.70000e+01
            28   5.29201e+01   2.80000e+01   1.72045e+01   1.31244e+01   5.80000e+01
            29   5.40751e+01   2.90000e+01   1.71236e+01   1.31222e+01   5.90000e+01
            30   5.52176e+01   3.00000e+01   1.70398e+01   1.31198e+01   6.00000e+01
            31   5.63635e+01   3.10000e+01   1.69450e+01   1.31174e+01   6.10000e+01
            32   5.75084e+01   3.20000e+01   1.67368e+01   1.31146e+01   6.20000e+01
            33   5.86494e+01   3.30000e+01   1.65693e+01   1.31117e+01   6.30000e+01
            34   5.97681e+01   3.40000e+01   1.63975e+01   1.31088e+01   6.40000e+01
            35   6.08967e+01   3.50000e+01   1.62141e+01   1.31057e+01   6.50000e+01
            36   6.20062e+01   3.60000e+01   1.59147e+01   1.31021e+01   6.60000e+01
            37   6.31261e+01   3.70000e+01   1.56628e+01   1.30984e+01   6.70000e+01
            38   6.42413e+01   3.80000e+01   1.54089e+01   1.30946e+01   6.80000e+01
            39   6.53450e+01   3.90000e+01   1.51459e+01   1.30905e+01   6.90000e+01
            40   6.64341e+01   4.00000e+01   1.47675e+01   1.30856e+01   7.00000e+01
            41   6.75260e+01   4.10000e+01   1.44351e+01   1.30808e+01   7.10000e+01
            42   6.86205e+01   4.20000e+01   1.41001e+01   1.30759e+01   7.20000e+01
            43   6.96977e+01   4.30000e+01   1.37557e+01   1.30708e+01   7.30000e+01
            44   7.07761e+01   4.40000e+01   1.33044e+01   1.30649e+01   7.40000e+01
            45   7.18627e+01   4.50000e+01   1.28956e+01   1.30591e+01   7.50000e+01
            46   7.29214e+01   4.60000e+01   1.24851e+01   1.30530e+01   7.60000e+01
            47   7.39939e+01   4.70000e+01   1.20671e+01   1.30468e+01   7.70000e+01
            48   7.50523e+01   4.80000e+01   1.15493e+01   1.30397e+01   7.80000e+01
            49   7.61130e+01   4.90000e+01   1.10712e+01   1.30327e+01   7.90000e+01
            50   7.71608e+01   5.00000e+01   1.05937e+01   1.30255e+01   8.00000e+01
            51   7.82035e+01   5.10000e+01   1.01113e+01   1.30180e+01   8.10000e+01
            52   7.92439e+01   5.20000e+01   9.53242e+00   1.30096e+01   8.20000e+01
            53   8.02865e+01   5.30000e+01   8.99313e+00   1.30012e+01   8.30000e+01
            54   8.13159e+01   5.40000e+01   8.45503e+00   1.29925e+01   8.40000e+01
            55   8.23484e+01   5.50000e+01   7.91151e+00   1.29836e+01   8.50000e+01
            56   8.33797e+01   5.60000e+01   7.28745e+00   1.29735e+01   8.60000e+01
            57   8.44055e+01   5.70000e+01   6.69567e+00   1.29635e+01   8.70000e+01
            58   8.54225e+01   5.80000e+01   6.10494e+00   1.29532e+01   8.80000e+01
            59   8.64520e+01   5.90000e+01   5.51019e+00   1.29428e+01   8.90000e+01
            60   8.74635e+01   6.00000e+01   4.85160e+00   1.29310e+01   9.00000e+01
            61   8.84698e+01   6.10000e+01   4.22299e+00   1.29195e+01   9.10000e+01
            62   8.94807e+01   6.20000e+01   3.59739e+00   1.29078e+01   9.20000e+01
            63   9.04870e+01   6.30000e+01   2.96866e+00   1.28959e+01   9.30000e+01
            64   9.14844e+01   6.40000e+01   2.28369e+00   1.28828e+01   9.40000e+01
            65   9.24856e+01   6.50000e+01   1.62704e+00   1.28699e+01   9.50000e+01
            66   9.34785e+01   6.60000e+01   9.76660e-01   1.28568e+01   9.60000e+01
            67   9.44843e+01   6.70000e+01   3.27148e-01   1.28435e+01   9.70000e+01
            68   9.54758e+01   6.80000e+01  -3.51457e-01   1.28291e+01   9.80000e+01
            69   9.64792e+01   6.90000e+01  -1.01627e+00   1.28149e+01   9.90000e+01
            70   9.74832e+01   7.00000e+01  -1.67586e+00   1.28006e+01   1.00000e+02
            71   9.84740e+01   7.10000e+01  -2.33430e+00   1.27860e+01   1.01000e+02
            72   9.94595e+01   7.20000e+01  -3.00751e+00   1.27705e+01   1.02000e+02
            73   1.00450e+02   7.30000e+01  -3.67228e+00   1.27552e+01   1.03000e+02
            74   1.01449e+02   7.40000e+01  -4.33268e+00   1.27397e+01   1.04000e+02
            75   1.02446e+02   7.50000e+01  -4.99027e+00   1.27240e+01   1.05000e+02
            76   1.03442e+02   7.60000e+01  -5.64111e+00   1.27076e+01   1.06000e+02
            77   1.04420e+02   7.70000e+01  -6.29043e+00   1.26913e+01   1.07000e+02
            78   1.05419e+02   7.80000e+01  -6.93352e+00   1.26750e+01   1.08000e+02
            79   1.06418e+02   7.90000e+01  -7.57221e+00   1.26586e+01   1.09000e+02
            80   1.07406e+02   8.00000e+01  -8.19181e+00   1.26416e+01   1.10000e+02
            81   1.08397e+02   8.10000e+01  -8.81320e+00   1.26248e+01   1.11000e+02
            82   1.09390e+02   8.20000e+01  -9.42883e+00   1.26080e+01   1.12000e+02
            83   1.10383e+02   8.30000e+01  -1.00383e+01   1.25911e+01   1.13000e+02
            84   1.11382e+02   8.40000e+01  -1.06036e+01   1.25740e+01   1.14000e+02
            85   1.12375e+02   8.50000e+01  -1.11816e+01   1.25569e+01   1.15000e+02
            86   1.13379e+02   8.60000e+01  -1.17542e+01   1.25399e+01   1.16000e+02
            87   1.14388e+02   8.70000e+01  -1.23192e+01   1.25229e+01   1.17000e+02
            88   1.15388e+02   8.80000e+01  -1.28225e+01   1.25059e+01   1.18000e+02
            89   1.16390e+02   8.90000e+01  -1.33458e+01   1.24890e+01   1.19000e+02
            90   1.17396e+02   9.00000e+01  -1.38625e+01   1.24722e+01   1.20000e+02
            91   1.18408e+02   9.10000e+01  -1.43717e+01   1.24554e+01   1.21000e+02
            92   1.19420e+02   9.20000e+01  -1.48070e+01   1.24390e+01   1.22000e+02
            93   1.20434e+02   9.30000e+01  -1.52679e+01   1.24225e+01   1.23000e+02
            94   1.21442e+02   9.40000e+01  -1.57242e+01   1.24061e+01   1.24000e+02
            95   1.22461e+02   9.50000e+01  -1.61725e+01   1.23898e+01   1.25000e+02
            96   1.23484e+02   9.60000e+01  -1.65307e+01   1.23740e+01   1.26000e+02
            97   1.24499e+02   9.70000e+01  -1.69194e+01   1.23582e+01   1.27000e+02
            98   1.25533e+02   9.80000e+01  -1.73031e+01   1.23425e+01   1.28000e+02
            99   1.26555e+02   9.90000e+01  -1.76766e+01   1.23270e+01   1.29000e+02
           100   1.27581e+02   1.00000e+02  -1.79537e+01   1.23121e+01   1.30000e+02
           101   1.28613e+02   1.01000e+02  -1.82658e+01   1.22972e+01   1.31000e+02
           102   1.29649e+02   1.02000e+02  -1.85737e+01   1.22825e+01   1.32000e+02
           103   1.30679e+02   1.03000e+02  -1.88721e+01   1.22679e+01   1.33000e+02
           104   1.31720e+02   1.04000e+02  -1.90659e+01   1.22541e+01   1.34000e+02
           105   1.32771e+02   1.05000e+02  -1.93015e+01   1.22403e+01   1.35000e+02
           106   1.33814e+02   1.06000e+02  -1.95335e+01   1.22267e+01   1.36000e+02
           107   1.34860e+02   1.07000e+02  -1.97557e+01   1.22132e+01   1.37000e+02
           108   1.35908e+02   1.08000e+02  -1.98686e+01   1.22007e+01   1.38000e+02
           109   1.36958e+02   1.09000e+02  -2.00245e+01   1.21880e+01   1.39000e+02
           110   1.38012e+02   1.10000e+02  -2.01773e+01   1.21755e+01   1.40000e+02
           111   1.39057e+02   1.11000e+02  -2.03211e+01   1.21632e+01   1.41000e+02
           112   1.40121e+02   1.12000e+02  -2.03622e+01   1.21517e+01   1.42000e+02
           113   1.41171e+02   1.13000e+02  -2.04405e+01   1.21402e+01   1.43000e+02
           114   1.42227e+02   1.14000e+02  -2.05160e+01   1.21289e+01   1.44000e+02
           115   1.43294e+02   1.15000e+02  -2.05824e+01   1.21177e+01   1.45000e+02
           116   1.44356e+02   1.16000e+02  -2.05466e+01   1.21074e+01   1.46000e+02
           117   1.45423e+02   1.17000e+02  -2.05532e+01   1.20970e+01   1.47000e+02
           118   1.46496e+02   1.18000e+02  -2.05592e+01   1.20866e+01   1.48000e+02
           119   1.47565e+02   1.19000e+02  -2.05567e+01   1.20765e+01   1.49000e+02
           120   1.48626e+02   1.20000e+02  -2.04562e+01   1.20671e+01   1.50000e+02
           121   1.49708e+02   1.21000e+02  -2.03971e+01   1.20576e+01   1.51000e+02
           122   1.50776e+02   1.22000e+02  -2.03374e+01   1.20484e+01   1.52000e+02
           123   1.51854e+02   1.23000e+02  -2.02718e+01   1.20393e+01   1.53000e+02
           124   1.52926e+02   1.24000e+02  -2.01212e+01   1.20312e+01   1.54000e+02
           125   1.54003e+02   1.25000e+02  -2.00047e+01   1.20229e+01   1.55000e+02
           126   1.55077e+02   1.26000e+02  -1.98898e+01   1.20148e+01   1.56000e+02
           127   1.56157e+02   1.27000e+02  -1.97698e+01   1.20067e+01   1.57000e+02
           128   1.57240e+02   1.28000e+02  -1.95737e+01   1.19996e+01   1.58000e+02
           129   1.58315e+02   1.29000e+02  -1.94090e+01   1.19924e+01   1.59000e+02
           130   1.59404e+02   1.30000e+02  -1.92456e+01   1.19853e+01   1.60000e+02
           131   1.60481e+02   1.31000e+02  -1.90768e+01   1.19783e+01   1.61000e+02
           132   1.61564e+02   1.32000e+02  -1.88474e+01   1.19721e+01   1.62000e+02
           133   1.62656e+02   1.33000e+02  -1.86466e+01   1.19658e+01   1.63000e+02
           134   1.63735e+02   1.34000e+02  -1.84484e+01   1.19595e+01   1.64000e+02
           135   1.64814e+02   1.35000e+02  -1.82470e+01   1.19533e+01   1.65000e+02
           136   1.65899e+02   1.36000e+02  -1.79959e+01   1.19477e+01   1.66000e+02
           137   1.66987e+02   1.37000e+02  -1.77687e+01   1.19420e+01   1.67000e+02
           138   1.68068e+02   1.38000e+02  -1.75454e+01   1.19364e+01   1.68000e+02
           139   1.69157e+02   1.39000e+02  -1.73217e+01   1.19309e+01   1.69000e+02
           140   1.70244e+02   1.40000e+02  -1.70645e+01   1.19259e+01   1.70000e+02
           141   1.71316e+02   1.41000e+02  -1.68266e+01   1.19208e+01   1.71000e+02
           142   1.72401e+02   1.42000e+02  -1.65928e+01   1.19158e+01   1.72000e+02
           143   1.73481e+02   1.43000e+02  -1.63584e+01   1.19108e+01   1.73000e+02
           144   1.74568e+02   1.44000e+02  -1.61099e+01   1.19062e+01   1.74000e+02
           145   1.75645e+02   1.45000e+02  -1.58694e+01   1.19014e+01   1.75000e+02
           146   1.76725e+02   1.46000e+02  -1.56322e+01   1.18967e+01   1.76000e+02
           147   1.77799e+02   1.47000e+02  -1.53971e+01   1.18919e+01   1.77000e+02
           148   1.78881e+02   1.48000e+02  -1.51630e+01   1.18872e+01   1.78000e+02
           149   1.79953e+02   1.49000e+02  -1.49311e+01   1.18824e+01   1.79000e+02
           150   1.81022e+02   1.50000e+02  -1.47020e+01   1.18776e+01   1.80000e+02
           151   1.82099e+02   1.51000e+02  -1.44751e+01   1.18727e+01   1.81000e+02
           152   1.83168e+02   1.52000e+02  -1.42599e+01   1.18677e+01   1.82000e+02
           153   1.84247e+02   1.53000e+02  -1.40439e+01   1.18627e+01   1.83000e+02
           154   1.85317e+02   1.54000e+02  -1.38310e+01   1.18577e+01   1.84000e+02
           155   1.86383e+02   1.55000e+02  -1.36210e+01   1.18526e+01   1.85000e+02
           156   1.87451e+02   1.56000e+02  -1.34341e+01   1.18473e+01   1.86000e+02
           157   1.88517e+02   1.57000e+02  -1.32381e+01   1.18420e+01   1.87000e+02
           158   1.89584e+02   1.58000e+02  -1.30437e+01   1.18366e+01   1.88000e+02
           159   1.90649e+02   1.59000e+02  -1.28525e+01   1.18312e+01   1.89000e+02
           160   1.91704e+02   1.60000e+02  -1.26916e+01   1.18255e+01   1.90000e+02
           161   1.92763e+02   1.61000e+02  -1.25180e+01   1.18197e+01   1.91000e+02
           162   1.93827e+02   1.62000e+02  -1.23453e+01   1.18138e+01   1.92000e+02
           163   1.94890e+02   1.63000e+02  -1.21749e+01   1.18079e+01   1.93000e+02
           164   1.95942e+02   1.64000e+02  -1.20336e+01   1.18014e+01   1.94000e+02
           165   1.97000e+02   1.65000e+02  -1.18791e+01   1.17950e+01   1.95000e+02
           166   1.98060e+02   1.66000e+02  -1.17246e+01   1.17885e+01   1.96000e+02
           167   1.99117e+02   1.67000e+02  -1.15735e+01   1.17819e+01   1.97000e+02
           168   2.00163e+02   1.68000e+02  -1.14496e+01   1.17748e+01   1.98000e+02
           169   2.01218e+02   1.69000e+02  -1.13115e+01   1.17677e+01   1.99000e+02
           170   2.02275e+02   1.70000e+02  -1.11710e+01   1.17604e+01   2.00000e+02
           171   2.03327e+02   1.71000e+02  -1.10308e+01   1.17531e+01   2.01000e+02
           172   2.04374e+02   1.72000e+02  -1.09087e+01   1.17452e+01   2.02000e+02
           173   2.05427e+02   1.73000e+02  -1.07755e+01   1.17375e+01   2.03000e+02
           174   2.06479e+02   1.74000e+02  -1.06395e+01   1.17297e+01   2.04000e+02
           175   2.07526e+02   1.75000e+02  -1.05030e+01   1.17218e+01   2.05000e+02
           176   2.08570e+02   1.76000e+02  -1.03721e+01   1.17135e+01   2.06000e+02
           177   2.09620e+02   1.77000e+02  -1.02327e+01   1.17052e+01   2.07000e+02
           178   2.10678e+02   1.78000e+02  -1.00916e+01   1.16969e+01   2.08000e+02
           179   2.11726e+02   1.79000e+02  -9.95051e+00   1.16885e+01   2.09000e+02
           180   2.12779e+02   1.80000e+02  -9.80112e+00   1.16795e+01   2.10000e+02
           181   2.13828e+02   1.81000e+02  -9.65480e+00   1.16707e+01   2.11000e+02
           182   2.14881e+02   1.82000e+02  -9.50508e+00   1.16619e+01   2.12000e+02
           183   2.15930e+02   1.83000e+02  -9.35278e+00   1.16529e+01   2.13000e+02
           184   2.16983e+02   1.84000e+02  -9.18606e+00   1.16437e+01   2.14000e+02
           185   2.18041e+02   1.85000e+02  -9.02336e+00   1.16345e+01   2.15000e+02
           186   2.19095e+02   1.86000e+02  -8.85845e+00   1.16251e+01   2.16000e+02
           187   2.20135e+02   1.87000e+02  -8.69292e+00   1.16158e+01   2.17000e+02
           188   2.21186e+02   1.88000e+02  -8.51468e+00   1.16060e+01   2.18000e+02
           189   2.22235e+02   1.89000e+02  -8.34015e+00   1.15962e+01   2.19000e+02
           190   2.23295e+02   1.90000e+02  -8.16359e+00   1.15864e+01   2.20000e+02
           191   2.24348e+02   1.91000e+02  -7.98471e+00   1.15763e+01   2.21000e+02
           192   2.25400e+02   1.92000e+02  -7.78270e+00   1.15658e+01   2.22000e+02
           193   2.26451e+02   1.93000e+02  -7.59231e+00   1.15553e+01   2.23000e+02
           194   2.27508e+02   1.94000e+02  -7.40416e+00   1.15447e+01   2.24000e+02
           195   2.28564e+02   1.95000e+02  -7.21652e+00   1.15340e+01   2.25000e+02
           196   2.29606e+02   1.96000e+02  -7.01454e+00   1.15227e+01   2.26000e+02
           197   2.30662e+02   1.97000e+02  -6.81796e+00   1.15115e+01   2.27000e+02
           198   2.31712e+02   1.98000e+02  -6.61933e+00   1.15003e+01   2.28000e+02
           199   2.32767e+02   1.99000e+02  -6.41742e+00   1.14890e+01   2.29000e+02
           200   2.33818e+02   2.00000e+02  -6.20314e+00   1.14771e+01   2.30000e+02
           201   2.34870e+02   2.01000e+02  -5.99346e+00   1.14653e+01   2.31000e+02
           202   2.35924e+02   2.02000e+02  -5.78081e+00   1.14535e+01   2.32000e+02
           203   2.36963e+02   2.03000e+02  -5.56645e+00   1.14415e+01   2.33000e+02
           204   2.38017e+02   2.04000e+02  -5.33673e+00   1.14290e+01   2.34000e+02
           205   2.39067e+02   2.05000e+02  -5.10941e+00   1.14167e+01   2.35000e+02
           206   2.40121e+02   2.06000e+02  -4.88068e+00   1.14043e+01   2.36000e+02
           207   2.41178e+02   2.07000e+02  -4.64964e+00   1.13918e+01   2.37000e+02
           208   2.42226e+02   2.08000e+02  -4.39175e+00   1.13790e+01   2.38000e+02
           209   2.43270e+02   2.09000e+02  -4.14231e+00   1.13663e+01   2.39000e+02
           210   2.44329e+02   2.10000e+02  -3.89115e+00   1.13534e+01   2.40000e+02
           211   2.45383e+02   2.11000e+02  -3.63783e+00   1.13405e+01   2.41000e+02
           212   2.46438e+02   2.12000e+02  -3.35751e+00   1.13274e+01   2.42000e+02
           213   2.47492e+02   2.13000e+02  -3.08674e+00   1.13144e+01   2.43000e+02
           214   2.48542e+02   2.14000e+02  -2.81267e+00   1.13013e+01   2.44000e+02
           215   2.49592e+02   2.15000e+02  -2.53625e+00   1.12883e+01   2.45000e+02
           216   2.50645e+02   2.16000e+02  -2.23321e+00   1.12750e+01   2.46000e+02
           217   2.51702e+02   2.17000e+02  -1.94164e+00   1.12618e+01   2.47000e+02
           218   2.52760e+02   2.18000e+02  -1.65043e+00   1.12485e+01   2.48000e+02
           219   2.53817e+02   2.19000e+02  -1.35699e+00   1.12351e+01   2.49000e+02
           220   2.54866e+02   2.20000e+02  -1.03154e+00   1.12215e+01   2.50000e+02
           221   2.55920e+02   2.21000e+02  -7.18805e-01   1.12078e+01   2.51000e+02
           222   2.56988e+02   2.22000e+02  -4.07115e-01   1.11940e+01   2.52000e+02
           223   2.58044e+02   2.23000e+02  -9.53715e-02   1.11802e+01   2.53000e+02
           224   2.59094e+02   2.24000e+02   2.41507e-01   1.11656e+01   2.54000e+02
           225   2.60147e+02   2.25000e+02   5.67739e-01   1.11512e+01   2.55000e+02
           226   2.61203e+02   2.26000e+02   8.95245e-01   1.11365e+01   2.56000e+02
           227   2.62255e+02   2.27000e+02   1.22513e+00   1.11216e+01   2.57000e+02
           228   2.63316e+02   2.28000e+02   1.57686e+00   1.11058e+01   2.58000e+02
           229   2.64374e+02   2.29000e+02   1.91858e+00   1.10900e+01   2.59000e+02
           230   2.65436e+02   2.30000e+02   2.25981e+00   1.10740e+01   2.60000e+02
           231   2.66481e+02   2.31000e+02   2.60361e+00   1.10577e+01   2.61000e+02
           232   2.67535e+02   2.32000e+02   2.96589e+00   1.10403e+01   2.62000e+02
